Time Mean Temperature (K), p = 3.0 mb
ttav (180W to 180E, dlong = 9 deg; 90N to 90S, dlat = 7.5 deg)
      144.910      144.910      144.910      144.910      144.910      144.910
      144.910      144.910      144.910      144.910      144.910      144.910
      144.910      144.910      144.910      144.910      144.910      144.910
      144.910      144.910      144.910      144.910      144.910      144.910
      144.910      144.910      144.910      144.910      144.910      144.910
      144.910      144.910      144.910      144.910      144.910      144.910
      144.910      144.910      144.910      144.910      144.910
      146.290      146.430      146.510      146.530      146.640      146.680
      146.630      146.600      146.610      146.500      146.470      146.330
      146.270      146.120      146.000      145.790      145.670      145.760
      145.700      145.660      145.650      145.590      145.640      145.670
      145.710      145.680      145.770      145.770      145.910      146.000
      146.170      146.220      146.290      146.420      146.280      146.320
      146.190      146.150      146.090      146.290      146.290
      151.070      151.300      151.450      151.790      151.860      152.060
      151.910      151.900      151.700      151.520      151.280      150.970
      150.550      150.390      150.040      149.920      149.820      149.990
      150.030      150.230      150.470      150.860      151.310      151.640
      151.910      152.120      152.080      152.110      152.010      151.830
      151.540      151.400      150.990      150.790      150.530      150.440
      150.320      150.400      150.560      150.850      151.070
      159.680      160.140      160.650      160.990      161.160      161.260
      161.160      160.800      160.270      159.640      158.800      158.040
      157.310      156.810      156.410      156.420      156.710      157.390
      158.190      159.410      160.620      161.950      163.240      164.200
      164.740      165.060      164.900      164.570      163.880      162.960
      161.890      160.860      159.850      159.200      158.680      158.370
      158.160      158.420      158.750      159.180      159.680
      174.450      175.270      175.580      175.870      175.650      175.390
      174.710      173.990      172.950      171.960      170.410      169.360
      168.150      167.490      167.050      167.310      167.910      169.430
      171.360      173.810      176.130      178.420      180.260      181.740
      182.360      182.910      182.700      182.330      181.280      180.180
      178.410      176.760      174.830      173.530      172.420      172.020
      171.860      172.320      172.880      173.800      174.450
      192.170      192.530      192.660      192.430      191.340      190.700
      189.740      188.980      187.510      186.380      184.790      183.650
      182.390      181.720      182.450      183.810      185.380      187.340
      189.720      192.190      194.620      196.390      197.580      198.160
      198.390      198.400      198.230      197.970      197.510      196.760
      195.800      194.390      192.990      191.660      190.810      190.380
      190.280      190.420      190.920      191.600      192.170
      204.500      204.640      204.760      204.020      202.820      201.510
      200.290      197.920      196.800      195.610      195.110      194.450
      194.620      194.710      195.590      197.770      199.970      201.670
      203.430      205.050      206.140      206.780      206.740      206.480
      205.860      205.570      205.530      205.920      206.490      206.540
      206.450      206.180      205.720      205.130      204.650      204.220
      203.830      203.410      203.700      204.050      204.500
      210.110      210.510      211.010      210.710      209.420      208.840
      206.130      205.140      203.900      202.640      201.950      202.370
      202.800      203.940      204.270      206.410      207.920      208.710
      209.320      209.400      209.640      209.390      209.390      208.610
      208.940      209.090      209.220      208.650      209.950      210.160
      210.460      210.440      210.680      210.320      210.070      209.210
      208.460      208.020      208.460      209.330      210.110
      213.600      214.330      215.050      215.380      214.580      213.420
      211.790      210.680      208.900      208.030      208.120      208.030
      209.040      208.570      209.310      210.210      210.700      210.210
      209.410      209.780      210.330      211.060      211.480      212.160
      212.450      212.720      212.170      211.740      212.510      212.430
      212.150      212.140      212.170      212.150      211.760      211.310
      210.660      210.990      211.160      212.590      213.600
      213.770      214.410      215.090      215.380      215.190      214.780
      214.330      214.410      213.890      212.910      212.890      212.770
      213.060      212.050      212.030      211.830      211.390      210.930
      212.480      212.830      213.460      213.980      214.470      214.660
      214.640      214.370      214.460      213.840      214.570      213.730
      213.360      213.230      213.140      212.750      212.550      211.270
      211.920      212.040      211.640      212.960      213.770
      214.210      214.380      214.440      214.820      214.720      215.050
      215.660      216.100      216.750      217.450      215.970      216.040
      214.910      214.340      213.590      213.810      214.860      216.280
      214.760      213.480      214.200      214.820      215.070      215.470
      214.920      215.230      215.370      214.530      214.370      214.480
      213.870      213.580      213.250      212.880      211.610      211.640
      212.660      213.210      213.300      213.820      214.210
      214.310      213.740      213.790      213.420      213.280      213.870
      214.460      214.630      217.880      218.250      218.650      217.370
      216.470      215.970      216.360      217.310      215.510      216.360
      215.460      216.470      216.740      216.330      216.150      216.540
      215.250      215.510      215.520      214.880      214.800      215.190
      214.870      214.470      214.290      214.480      214.020      214.300
      214.590      214.510      214.540      214.530      214.310
      214.980      214.020      213.400      213.060      213.270      212.890
      211.700      215.290      218.680      219.610      218.490      217.950
      217.770      217.320      216.730      217.210      217.290      217.210
      218.210      217.550      217.920      217.860      217.350      215.770
      212.990      214.720      215.260      215.890      216.240      214.520
      213.650      213.950      214.650      214.840      215.440      216.170
      215.570      214.920      214.910      214.950      214.980
      214.370      214.350      213.970      213.790      214.040      212.960
      211.770      214.900      219.900      220.230      218.570      218.600
      217.360      216.280      215.360      215.910      216.310      216.380
      216.820      216.600      217.120      217.200      217.620      216.780
      214.340      214.870      215.400      214.600      215.170      216.200
      215.090      214.070      214.190      214.610      214.980      215.430
      214.740      213.980      214.170      214.230      214.370
      215.390      215.660      215.490      215.570      215.970      215.860
      215.810      218.660      223.520      223.940      220.860      220.940
      218.790      217.870      214.570      215.470      215.880      216.560
      216.730      217.050      216.910      217.360      217.480      216.840
      216.770      216.330      215.920      215.140      215.550      215.340
      215.350      215.140      214.140      215.000      214.870      214.790
      214.550      214.690      214.920      215.270      215.390
      217.420      217.540      218.000      218.700      217.820      217.940
      220.390      223.870      227.790      229.010      224.940      223.530
      222.640      221.430      218.120      217.540      218.150      218.740
      218.860      218.800      218.250      218.450      219.750      220.900
      218.380      217.320      215.730      215.440      217.050      216.800
      217.080      216.040      217.840      218.480      216.780      215.640
      216.140      217.480      217.380      217.180      217.420
      222.650      223.210      223.520      223.040      223.030      222.720
      222.720      224.790      226.810      228.660      226.450      225.880
      224.690      222.360      220.430      220.580      220.150      219.670
      219.550      219.770      219.240      218.930      217.930      218.700
      218.800      219.700      219.640      219.180      218.440      217.630
      217.430      217.220      216.320      219.460      219.900      218.160
      220.760      223.470      223.360      222.220      222.650
      222.940      223.150      223.510      223.940      224.250      224.140
      224.780      226.570      228.630      229.080      227.380      225.400
      223.490      222.000      220.930      221.170      221.020      221.420
      221.390      221.410      220.890      219.870      219.260      219.360
      221.100      221.920      222.560      222.670      222.030      221.650
      221.230      222.920      223.730      223.280      223.390      222.190
      222.200      222.590      223.170      222.550      222.940
      223.490      223.400      223.620      223.700      224.050      224.690
      225.410      226.520      227.450      227.470      225.720      224.610
      223.060      222.780      222.450      222.800      222.790      223.030
      222.960      223.030      222.290      221.850      221.460      220.960
      222.170      222.540      222.920      223.740      223.880      223.930
      223.080      223.810      224.990      223.860      223.900      223.570
      223.810      223.390      223.630      223.380      223.490
      221.760      221.440      220.760      221.040      221.410      222.850
      224.520      225.740      226.190      226.540      225.850      225.510
      224.650      224.830      224.310      224.540      224.260      224.450
      224.570      224.180      224.190      223.920      223.310      222.340
      222.200      224.680      224.900      224.850      224.780      224.520
      225.910      226.630      225.140      224.430      223.470      223.150
      222.400      222.420      222.100      222.230      221.760
      220.410      219.550      219.260      218.860      218.820      219.610
      220.740      222.640      224.030      224.100      224.640      224.100
      224.320      224.330      224.670      224.610      224.450      224.590
      223.950      224.450      224.440      224.860      224.990      225.890
      223.320      222.930      225.400      225.660      226.020      226.440
      226.280      224.810      223.970      223.720      223.690      224.060
      223.790      222.610      222.270      220.660      220.410
      220.030      218.420      218.300      217.250      216.210      214.990
      216.060      216.730      217.710      218.800      220.050      220.530
      221.620      221.780      222.240      222.340      222.390      223.420
      223.920      224.330      224.790      224.850      225.430      226.050
      225.150      222.810      222.510      223.120      224.220      224.390
      224.220      224.080      224.080      224.190      224.100      224.130
      223.860      223.000      222.300      221.060      220.030
      213.280      213.580      211.910      211.860      210.140      209.590
      209.880      210.000      210.820      211.780      212.570      213.780
      214.230      215.070      215.690      216.110      216.270      217.060
      217.300      217.730      217.420      218.250      218.170      218.280
      217.450      217.020      217.570      218.550      219.280      219.030
      219.180      219.130      219.190      218.720      218.280      217.920
      216.340      215.850      215.090      214.100      213.280
      208.880      208.890      208.370      208.200      207.190      206.920
      206.520      206.680      207.250      207.350      207.930      208.200
      208.670      208.960      209.290      209.940      210.660      211.130
      211.500      211.610      211.650      211.720      211.590      211.460
      211.190      211.220      211.550      211.770      211.860      211.930
      212.030      211.770      211.470      210.880      210.600      210.160
      209.860      209.650      209.450      209.030      208.880
      206.690      206.690      206.690      206.690      206.690      206.690
      206.690      206.690      206.690      206.690      206.690      206.690
      206.690      206.690      206.690      206.690      206.690      206.690
      206.690      206.690      206.690      206.690      206.690      206.690
      206.690      206.690      206.690      206.690      206.690      206.690
      206.690      206.690      206.690      206.690      206.690      206.690
      206.690      206.690      206.690      206.690      206.690
 
Time Mean Temperature (K), p = 0.5 mb
ttav (180W to 180E, dlong = 9 deg; 90N to 90S, dlat = 7.5 deg)
      134.950      134.950      134.950      134.950      134.950      134.950
      134.950      134.950      134.950      134.950      134.950      134.950
      134.950      134.950      134.950      134.950      134.950      134.950
      134.950      134.950      134.950      134.950      134.950      134.950
      134.950      134.950      134.950      134.950      134.950      134.950
      134.950      134.950      134.950      134.950      134.950      134.950
      134.950      134.950      134.950      134.950      134.950
      137.750      137.560      137.370      137.170      137.170      136.860
      136.900      136.900      136.820      136.890      137.000      137.120
      137.080      137.230      137.220      137.320      137.530      137.380
      137.600      137.480      137.530      137.560      137.620      137.330
      137.210      137.260      137.170      137.340      137.270      137.850
      138.070      137.710      137.930      138.020      137.970      138.120
      138.080      138.200      138.140      138.010      137.750
      138.100      138.220      138.420      138.060      138.040      137.840
      137.680      137.730      137.620      137.370      137.050      137.410
      137.590      137.760      137.910      138.250      138.410      138.360
      138.850      139.320      139.700      140.490      140.830      141.060
      141.330      141.540      141.280      141.220      140.900      140.460
      139.930      139.490      139.020      138.800      138.580      138.730
      138.680      138.670      138.470      138.200      138.100
      147.630      147.960      148.030      147.970      147.700      147.270
      146.410      145.690      144.660      143.540      142.620      141.940
      141.460      141.330      141.750      142.650      143.810      145.350
      147.210      149.250      151.230      153.160      154.860      156.190
      157.180      158.040      158.190      158.100      157.410      156.370
      154.840      153.080      151.280      149.980      148.930      148.110
      147.460      147.270      147.160      147.330      147.630
      167.340      167.260      167.100      166.700      166.450      165.790
      164.840      163.680      162.360      161.040      159.990      158.790
      157.910      157.540      158.020      159.740      161.910      164.050
      166.590      168.960      170.850      172.250      173.510      174.290
      175.090      175.530      175.770      175.690      175.660      175.130
      174.630      173.790      173.060      172.080      170.990      169.800
      168.680      167.980      167.620      167.440      167.340
      175.850      175.450      174.660      174.340      173.750      173.460
      172.760      172.260      171.580      171.370      171.100      171.020
      171.110      171.630      172.060      173.330      174.990      176.660
      177.740      178.770      178.890      179.060      179.030      179.140
      179.130      179.380      179.270      179.730      180.100      180.530
      180.940      181.770      181.780      181.790      181.280      180.410
      179.040      178.170      177.210      176.610      175.850
      179.130      178.360      177.600      177.140      177.150      176.830
      176.480      176.010      176.010      176.320      176.990      177.880
      178.890      179.730      180.570      180.190      181.070      181.440
      181.640      181.240      180.790      180.180      179.870      179.900
      180.190      180.430      180.370      180.860      181.030      181.700
      182.610      183.400      184.050      184.170      183.940      183.100
      182.020      181.230      180.230      179.510      179.130
      179.080      178.070      177.550      176.960      177.460      177.580
      176.770      177.680      178.540      178.760      179.460      180.320
      181.700      182.020      182.630      181.960      181.920      181.850
      181.240      179.920      179.450      178.850      178.800      178.950
      179.200      179.210      179.750      179.590      179.970      180.400
      181.690      182.150      182.620      182.600      182.320      181.360
      181.410      180.900      180.280      179.360      179.080
      176.600      176.500      176.130      175.560      175.740      176.360
      176.330      177.710      177.970      179.300      179.410      180.650
      181.050      181.520      181.600      180.710      180.510      179.430
      178.050      177.550      176.890      176.340      176.490      176.770
      176.540      176.460      177.270      178.270      177.920      178.730
      179.310      180.000      180.050      180.080      179.650      179.600
      179.230      179.260      178.270      177.710      176.600
      175.140      176.030      175.730      175.570      175.560      176.340
      176.100      176.600      176.160      177.700      177.620      178.940
      178.860      179.180      177.720      177.770      176.420      175.480
      174.230      173.880      173.940      174.000      174.540      174.660
      174.600      174.440      175.840      175.550      175.810      176.870
      177.420      177.290      177.330      177.270      177.030      177.180
      177.430      176.580      176.630      176.360      175.140
      175.210      174.890      174.650      175.210      175.320      175.080
      175.290      175.360      176.080      176.470      176.360      176.310
      175.590      175.560      175.420      174.090      173.570      172.170
      172.910      172.360      171.840      171.310      172.150      172.400
      171.700      172.380      173.040      174.600      173.870      174.320
      175.030      173.850      173.540      175.560      176.200      176.140
      176.190      176.350      175.620      175.400      175.210
      174.620      175.070      175.110      174.970      175.240      174.740
      175.360      173.870      174.970      175.620      174.540      174.990
      174.180      173.860      173.150      172.200      171.690      171.410
      170.820      170.830      169.850      170.130      170.920      170.940
      169.780      171.080      171.160      172.990      172.860      172.580
      172.360      172.580      173.720      174.300      174.350      175.310
      175.400      175.350      175.380      174.720      174.620
      175.480      175.170      175.000      174.870      174.860      174.290
      173.650      173.650      174.160      175.780      174.030      173.790
      173.550      173.560      172.530      171.660      170.860      170.380
      169.810      169.520      169.940      170.540      169.870      167.580
      169.400      170.250      170.730      170.380      172.600      172.740
      172.840      173.850      173.860      173.820      174.840      175.580
      175.240      175.570      175.150      175.290      175.480
      175.480      175.250      174.970      175.170      175.090      172.130
      173.280      174.450      176.600      174.990      175.310      173.650
      174.190      173.800      173.990      173.430      172.760      172.420
      171.470      171.410      171.730      172.210      171.570      170.480
      171.360      172.070      172.080      172.180      172.670      173.590
      173.690      173.560      173.420      173.940      174.830      175.160
      175.460      175.430      175.030      175.350      175.480
      176.600      176.140      176.050      175.920      175.370      174.220
      175.700      176.490      176.040      176.210      175.580      176.230
      175.830      176.090      174.050      174.630      174.310      174.290
      173.520      174.100      174.250      174.810      173.370      173.570
      174.080      173.230      173.480      174.280      174.970      174.990
      174.860      174.340      174.580      175.340      175.800      176.390
      176.320      176.260      176.310      176.610      176.600
      177.820      177.340      177.260      177.110      176.840      176.460
      177.560      178.040      177.720      177.850      177.760      178.060
      178.010      176.950      175.650      175.380      175.940      175.660
      175.830      176.120      176.570      176.310      175.240      174.570
      175.300      176.410      176.800      176.800      177.140      177.280
      177.130      176.410      176.550      176.890      177.620      177.660
      177.850      177.770      177.740      177.670      177.820
      180.190      180.150      179.960      179.860      179.730      179.780
      180.310      180.790      181.150      180.950      181.150      180.940
      180.620      180.220      178.840      179.410      179.510      179.470
      179.510      179.670      179.770      179.420      179.050      178.830
      179.620      179.940      179.760      179.270      179.510      180.190
      180.700      180.380      180.130      179.750      179.950      179.970
      179.990      180.050      179.920      179.870      180.190
      182.060      182.140      181.880      181.950      182.030      182.210
      182.480      182.920      182.930      183.100      182.990      182.900
      182.600      182.130      181.430      181.770      181.840      181.950
      181.950      181.970      181.610      181.260      180.970      181.000
      181.680      182.040      181.380      182.040      182.060      181.310
      181.810      182.200      181.730      181.560      181.360      181.610
      181.840      182.100      181.880      181.990      182.060
      183.530      183.720      183.650      183.830      183.850      184.080
      184.320      184.430      184.530      184.460      184.430      184.360
      184.010      183.830      183.500      183.460      183.840      183.940
      184.020      183.890      183.560      183.740      183.860      183.730
      184.020      184.480      183.760      183.790      183.780      183.260
      183.830      184.100      183.660      183.080      183.280      183.510
      183.560      183.510      183.420      183.480      183.530
      184.490      184.650      185.100      185.230      185.600      185.400
      185.430      185.610      185.650      185.490      185.230      185.010
      184.820      184.340      184.560      184.640      184.570      184.820
      184.640      184.640      184.960      185.170      185.460      185.250
      185.060      185.740      185.920      185.500      185.240      185.070
      184.850      184.510      183.790      183.730      183.650      183.670
      183.680      183.860      183.980      184.170      184.490
      183.780      184.190      184.430      185.090      185.440      186.360
      186.770      186.860      187.040      186.930      186.550      186.140
      185.830      186.100      186.030      186.550      186.380      186.490
      186.280      185.980      185.670      186.300      186.630      187.040
      186.580      186.310      186.360      186.570      186.270      185.930
      185.380      184.680      183.940      183.610      183.510      183.320
      183.150      183.040      183.170      183.660      183.780
      183.390      183.830      184.350      185.010      185.700      186.150
      186.860      187.640      188.180      188.410      188.500      188.210
      188.000      187.670      187.590      187.340      187.380      187.400
      187.470      187.450      187.460      187.610      187.580      187.680
      187.360      186.880      186.720      186.630      186.220      185.750
      184.900      184.150      183.560      183.200      182.920      182.840
      182.650      182.680      182.780      183.050      183.390
      183.100      183.530      183.970      184.690      185.260      185.910
      186.420      187.170      187.650      188.180      188.550      188.910
      189.170      189.390      189.500      189.660      189.570      189.420
      189.210      188.900      188.650      188.260      188.030      187.580
      187.350      187.070      186.810      186.440      186.040      185.560
      185.060      184.540      183.940      183.540      183.130      182.960
      182.720      182.640      182.660      182.790      183.100
      184.180      184.130      184.390      184.740      185.280      185.720
      186.080      186.520      186.580      186.770      186.980      187.210
      187.400      187.540      187.770      187.830      187.950      187.890
      187.870      187.730      187.630      187.500      187.280      186.880
      186.590      186.440      186.300      185.960      185.530      185.240
      185.060      184.760      184.610      184.420      184.180      184.030
      183.820      183.950      183.930      183.880      184.180
      186.300      186.300      186.300      186.300      186.300      186.300
      186.300      186.300      186.300      186.300      186.300      186.300
      186.300      186.300      186.300      186.300      186.300      186.300
      186.300      186.300      186.300      186.300      186.300      186.300
      186.300      186.300      186.300      186.300      186.300      186.300
      186.300      186.300      186.300      186.300      186.300      186.300
      186.300      186.300      186.300      186.300      186.300
 
Time Mean Horizontal Wind Magnitude (m/s), p = 3.0 mb
utav (175.5W to 175.5E, dlong = 9 deg; 86.25N to 86.25S, dlat = 7.5 deg)
      11.6731      11.6731      11.6731      11.6731      11.6731      11.6731
      11.6731      11.6731      11.6731      11.6731      11.6731      11.6731
      11.6731      11.6731      11.6731      11.6731      11.6731      11.6731
      11.6731      11.6731      11.6731      11.6731      11.6731      11.6731
      11.6731      11.6731      11.6731      11.6731      11.6731      11.6731
      11.6731      11.6731      11.6731      11.6731      11.6731      11.6731
      11.6731      11.6731      11.6731      11.6731
      19.8532      20.5626      21.5810      22.4982      23.2406      23.7491
      23.5499      23.3894      22.8790      21.5085      20.2918      19.0638
      17.6204      16.3479      15.6196      15.8772      16.6499      18.1273
      20.0652      22.1320      24.4447      26.3514      27.8296      29.1276
      29.8817      30.3919      30.3093      29.9120      29.3925      28.5674
      27.6830      25.9994      24.3121      23.3066      21.9889      20.8716
      19.9820      19.3333      19.3120      19.3916
      39.6514      41.8772      44.1314      45.8752      47.3036      48.3946
      48.7055      48.6334      47.8563      46.2768      44.6041      42.4502
      39.6614      36.7089      33.6531      31.0128      29.5823      29.8913
      31.6716      34.2989      37.3613      40.2338      42.5091      44.0511
      44.7947      45.0601      45.0261      44.4650      43.4156      42.1200
      40.3165      37.9158      35.6584      34.0622      33.0739      32.5272
      32.8993      34.1494      35.5858      37.4569
      49.9724      51.7288      53.5597      55.1931      56.6079      57.9838
      58.9309      59.1412      58.7505      57.7838      56.3093      54.3251
      51.6354      48.3233      44.6722      41.2086      38.9957      38.8057
      40.7162      44.0009      47.5528      50.9213      53.5893      55.1310
      55.8684      56.2174      56.1946      55.5293      54.1681      52.2613
      49.7711      46.9367      44.4181      42.9551      42.7044      43.0478
      44.0660      45.7674      47.2916      48.5113
      55.8070      56.2361      57.1030      58.5301      60.1569      61.8181
      63.2706      64.1777      64.2390      63.3478      61.8754      59.9245
      57.2217      53.8493      50.3567      47.4382      46.2626      47.5791
      50.9642      55.3847      59.5963      63.0534      65.5927      67.1750
      68.0399      68.2388      67.6382      66.2627      64.1973      61.3940
      57.9959      54.7911      52.4559      51.1815      51.2191      52.2896
      53.5952      54.6867      55.3888      55.6259
      59.4408      58.7463      58.3601      58.6397      59.7366      61.3894
      63.5131      65.4265      66.1131      65.4715      63.9365      61.8108
      59.1096      56.3628      54.1026      52.6215      53.1844      56.1918
      60.5883      65.1609      68.8783      71.1703      72.3234      72.7439
      72.4359      71.4889      69.9684      67.8979      65.4458      62.6378
      59.5107      56.8123      55.1473      54.4993      55.2632      57.1995
      59.0210      59.9623      60.2641      60.0728
      58.2726      56.8383      55.0605      53.4849      53.0138      54.1716
      56.6196      59.0147      60.1152      59.1709      56.7451      54.1403
      52.1164      51.0563      50.7016      51.2417      53.3615      57.2150
      61.9594      65.7382      67.6858      67.7078      66.3336      64.3914
      62.2314      60.1329      58.5231      57.0297      55.1968      53.4771
      52.2709      51.6301      51.5963      52.2960      54.0195      56.3656
      58.3351      59.4530      59.7846      59.3416
      50.9611      49.6534      47.6895      45.9636      45.4580      46.6341
      48.8083      50.9797      51.9623      50.2386      46.5911      43.4414
      42.4548      42.7756      43.5255      45.1741      48.0079      52.0069
      55.0074      55.5555      53.7638      50.5390      47.3263      44.5990
      42.0372      39.9894      38.8297      38.3403      38.1172      38.5030
      39.9854      42.0310      43.9444      45.4347      46.8153      48.5313
      50.1842      51.3025      51.9666      51.8192
      40.1393      38.7286      37.0050      35.0776      34.0731      34.5624
      35.6514      38.3951      39.8238      37.9008      36.1573      35.3617
      35.5308      36.6838      38.5669      41.4675      42.9681      41.0092
      38.2152      35.4115      32.1771      29.6611      27.8483      25.6289
      23.3188      21.8315      21.0505      20.2904      20.2550      22.4397
      26.9658      31.9362      35.2340      36.7002      37.7576      38.9557
      39.9312      40.9667      41.8368      41.4633
      21.1852      19.7036      18.4415      16.9168      15.9369      16.0437
      16.9459      20.8667      23.2813      22.1297      22.9851      26.9463
      31.6963      34.8011      37.5713      37.1422      30.2170      22.7688
      20.4307      19.4977      17.6001      15.5423      12.4981      9.01319
      8.65473      9.38379      10.6762      11.6970      11.4640      15.0013
      22.4801      27.3099      29.0673      29.7162      29.5599      28.0790
      26.8303      26.2441      25.0963      23.3030
      3.61936      2.33317     0.978771     0.790063      2.11966      3.68394
      2.79057      5.50292      8.94363      9.56330      11.7297      17.0815
      23.9143      27.6220      27.3500      23.3862      17.0386      11.6956
      10.7699      9.62990      8.55397      8.93802      8.18640      4.93302
      1.80129      3.76900      8.18721      10.3307      9.74317      14.6071
      19.3735      19.4353      17.9361      17.6291      17.3971      14.6328
      11.7490      10.1943      8.06064      5.79875
      5.51784      6.03484      5.86022      6.43792      8.18916      10.4649
      7.01569      2.94873      5.97385      3.91405      3.71274      7.74952
      12.0494      14.9639      16.6576      16.3995      13.1647      8.45308
      12.0257      8.76293      3.47556      9.50251      12.1815      13.6577
      11.8051      6.53742      4.09696      3.67809      6.16628      9.50109
      8.64435      6.08726      5.39604      6.13630      8.37058      5.49530
      1.64651      4.54660      5.22412      5.15325
      9.43593      9.17868      8.98460      9.50208      11.2424      14.0300
      10.2386      12.1131      17.2326      9.13733      2.17207      7.60084
      8.41929      5.13493      4.90455      10.8241      13.9521      11.5723
      11.0891      6.24103      1.60416      8.42400      13.8610      18.6470
      19.1532      15.2357      13.9319      11.4517      6.26276      6.56856
      9.15318      7.60075      4.45127      1.97826      3.51157      3.25930
      6.51383      10.1575      10.6392      10.0603
      10.2546      10.0190      10.1869      10.4262      11.7363      14.2662
      13.9659      21.1369      18.6572      8.86703      6.95416      11.2255
      17.3512      16.2828      12.2615      6.03350      4.01730      3.15065
      4.64640      8.99896      8.57931      10.2054      14.0112      16.7689
      14.7219      11.8257      14.4669      16.7611      14.4281      13.4331
      16.1681      16.9289      13.9969      10.8601      8.46246      6.97400
      8.63518      10.5034      10.5792      10.6021
      4.73348      3.92052      3.30683      4.30410      6.62594      9.86029
      13.5612      19.2603      10.3247      9.93195      9.08559      4.50248
      9.64319      9.43808      10.5174      10.0163      8.66512      8.03163
      8.16070      8.69636      8.88227      8.91697      9.01582      8.17661
      6.06354      3.24208      3.20015      7.29806      7.45333      8.46500
      9.66608      10.3683      9.74495      8.44277      8.32394      7.14397
      5.61723      4.44724      4.15570      4.76638
      5.84805      6.49160      6.95766      6.72202      5.33887      4.43351
      7.75261      10.9111      4.61988      9.34012      11.2591      12.3858
      10.1104      5.75873      2.42297     0.939196      2.67754      2.80537
      2.64706      3.00783      3.65439      3.46245      1.91074     0.737999
      2.94522      6.14255      6.93011      4.50753     0.951116     0.613759
      1.49622      2.83317      5.03566      5.71031      3.98708      3.84047
      6.21847      7.14374      6.58036      5.48662
      1.68017      1.90549      2.58649      3.73489      4.16316      3.80129
      5.15049      6.32252      4.67391      4.67347      5.35986     0.655538
      3.67668      4.55478      3.00594      2.30993      2.81307      2.94853
      2.92795      3.21707      3.63610      3.73791      3.20734      1.41981
      2.16532      5.07278      6.25465      4.91873      3.07950      2.13766
      1.30502     0.848112      3.45364      1.92975      2.63209      3.18459
      6.23346      2.69420      1.07847     0.399095
      9.65427      9.31511      8.61997      7.87888      6.72317      5.07334
      4.77363      5.11352      5.81215      8.85322      11.7704      13.4878
      13.5866      10.8712      7.91688      6.18603      5.17799      4.55277
      4.46483      4.64072      4.72072      4.70631      4.95500      4.79064
      3.70662      2.12427      1.22704      1.24821      1.42405      1.55962
      1.78913      2.17180      4.27260      7.33762      8.62910      8.08325
      10.5071      11.8639      10.9563      9.88837
      11.8375      12.0690      12.0264      11.5460      10.5443      9.41437
      8.88387      9.15359      10.1154      11.4717      11.6368      10.3918
      8.72271      7.73221      6.87439      6.05039      5.69375      5.44229
      5.63341      6.12268      6.46600      6.66370      7.03493      7.75150
      7.02615      5.22824      4.68976      5.00208      5.76934      6.91536
      7.98539      8.22469      8.59261      9.57786      9.94660      9.78954
      10.3394      11.3913      11.8524      11.7468
      9.74234      9.48208      9.06168      8.91658      8.68839      7.73957
      6.49049      5.23646      4.65880      4.90642      5.12856      4.43646
      3.09275      1.88211      2.34886      2.74357      3.15826      3.75321
      4.73787      5.69149      6.11013      6.06075      5.69966      6.12601
      7.76852      7.15988      4.72586      3.83198      4.37516      5.49466
      6.56626      8.22327      10.0488      10.3921      9.72709      9.29340
      9.03723      9.01106      9.33179      9.69607
      3.25070      3.59008      3.32306      2.78706      3.91367      5.76760
      5.36289      3.38532      2.36087      3.94800      5.82485      6.60448
      6.89605      7.14999      6.56234      5.22637      4.26490      3.60779
      4.06642      4.37327      3.42973      3.36593      4.34172      3.29211
      1.31325      4.56377      3.82604      1.29727      2.04683      4.43707
      5.80642      6.37363      4.96247      2.09605     0.757086      2.05719
      2.82201      3.22914      3.30072      3.11353
      9.37109      9.13818      8.26281      7.51138      7.04540      7.78652
      8.42440      7.20656      6.12647      6.20481      7.50433      9.10720
      10.1535      10.6182      10.7164      10.5709      10.2811      10.0861
      10.3431      10.8617      10.5626      9.73295      8.02194      6.43212
      7.32800      5.48668      4.72241      3.23671      2.82320      5.59134
      7.98597      9.15450      9.16088      8.92646      8.59153      7.85983
      7.37660      7.61848      8.08600      8.73896
      9.24688      8.77751      8.28924      8.42106      9.83871      10.9161
      10.8695      9.69418      8.15409      6.39558      5.80739      6.16964
      6.55016      6.91945      7.39778      8.28025      8.99184      9.31270
      9.84243      10.3831      10.2145      9.19502      7.77971      7.84498
      9.33271      9.06755      8.43260      7.20927      6.20156      7.28024
      9.33524      10.9150      11.5146      11.2524      10.4475      9.56067
      9.12251      9.10840      8.94354      8.98458
      8.11525      6.63539      6.08863      6.62830      8.07846      9.38768
      9.41595      8.57550      6.94483      5.66075      4.97410      4.55028
      4.18560      3.61742      2.52197      1.68371      2.69938      4.24227
      5.49919      6.50857      7.25745      7.83366      8.48985      9.77419
      10.8764      11.0440      10.2292      8.66932      7.35361      7.16754
      7.59885      8.02423      8.38420      8.65218      8.77111      9.01880
      9.71713      10.2139      9.75233      9.08490
 
Time Mean Horizontal Wind Direction (deg from N, clockwise), p = 3.0 mb
utav (175.5W to 175.5E, dlong = 9 deg; 86.25N to 86.25S, dlat = 7.5 deg)
      270.269      270.269      270.269      270.269      270.269      270.269
      270.269      270.269      270.269      270.269      270.269      270.269
      270.269      270.269      270.269      270.269      270.269      270.269
      270.269      270.269      270.269      270.269      270.269      270.269
      270.269      270.269      270.269      270.269      270.269      270.269
      270.269      270.269      270.269      270.269      270.269      270.269
      270.269      270.269      270.269      270.269
      271.313      268.551      266.100      266.934      268.189      270.156
      271.824      273.285      275.895      277.927      277.739      276.992
      274.502      269.387      262.673      257.519      251.593      246.069
      244.239      244.159      246.723      250.339      253.825      257.783
      262.043      266.343      270.525      274.192      277.794      281.100
      284.732      288.297      288.836      288.885      289.341      287.633
      285.156      282.040      279.248      274.641
      263.038      262.386      262.796      264.134      265.774      268.174
      270.779      273.396      276.314      278.546      280.136      281.453
      281.702      280.747      278.213      273.436      266.627      259.409
      254.002      250.983      250.660      252.568      255.716      259.561
      263.640      267.492      271.271      275.041      278.317      281.199
      283.822      285.346      285.002      283.069      280.434      276.716
      272.333      269.193      266.791      264.493
      261.629      261.295      261.777      262.935      264.572      266.792
      269.676      272.851      275.922      278.759      281.152      283.036
      284.235      284.218      282.537      278.405      271.675      263.985
      257.441      253.648      252.694      253.956      256.944      260.711
      264.541      268.348      272.205      276.030      279.450      282.257
      284.169      284.494      282.837      279.402      275.413      271.550
      267.852      265.308      263.856      262.625
      263.479      263.204      263.022      263.239      264.228      265.980
      268.539      271.713      275.246      278.621      281.309      283.380
      284.707      284.594      282.485      277.883      270.967      263.724
      258.030      254.974      254.540      255.964      258.624      261.974
      265.640      269.485      273.388      277.055      280.239      282.759
      284.009      283.321      280.915      277.270      273.041      269.433
      266.866      265.188      264.342      263.891
      265.567      265.675      265.243      264.595      264.504      265.439
      267.467      270.809      274.935      278.850      281.889      283.849
      284.375      282.992      279.888      274.614      267.606      261.158
      256.707      254.692      254.929      256.804      259.617      263.159
      267.129      271.172      275.149      278.720      281.665      283.703
      284.206      282.716      279.834      276.017      271.797      268.358
      266.346      265.339      264.992      265.199
      266.735      267.494      267.546      266.790      265.635      265.425
      267.058      270.794      275.907      281.180      284.904      285.992
      284.506      281.177      276.847      270.774      263.727      257.478
      253.730      252.723      253.748      256.438      260.299      264.816
      269.499      273.909      277.941      281.699      284.378      285.311
      284.513      282.132      278.734      274.593      270.420      267.194
      265.301      264.588      264.773      265.629
      266.994      268.572      269.419      268.890      267.366      266.539
      268.306      272.233      278.254      285.078      289.168      288.247
      283.892      278.818      272.815      266.148      259.184      253.422
      250.356      249.537      251.080      254.727      260.181      266.905
      273.605      279.110      283.524      287.354      288.545      286.648
      283.535      280.190      276.770      273.104      269.137      265.801
      263.740      262.863      263.350      265.089
      266.010      268.322      269.908      269.670      267.982      267.406
      269.715      275.427      282.827      289.796      291.828      288.619
      282.226      274.728      267.822      261.651      257.374      252.504
      246.314      242.650      242.890      247.039      255.523      268.411
      280.731      289.233      295.813      299.292      295.281      285.957
      278.777      275.428      273.980      271.649      267.888      264.434
      261.760      260.006      260.659      263.216
      261.186      264.783      268.599      269.455      265.508      263.738
      267.520      279.119      292.229      297.339      291.721      284.761
      276.476      270.101      266.701      264.950      264.603      255.809
      238.894      231.288      227.586      224.802      232.482      264.561
      297.551      310.573      314.373      311.193      295.722      270.345
      265.283      268.541      271.193      270.697      269.072      266.348
      259.955      255.162      254.824      257.156
      216.325      202.626      194.308      179.167      174.092      180.659
      220.077      294.175      314.968      306.706      282.515      272.517
      266.932      269.901      274.274      279.342      283.323      262.706
      233.152      214.514      192.577      168.990      148.159      114.268
      62.1600      287.809      291.681      302.421      281.897      248.947
      253.193      265.159      270.647      272.664      279.958      279.066
      256.703      241.289      232.263      224.628
      108.322      103.373      97.8290      100.889      108.598      123.420
      123.290      297.645      295.265      312.423      270.885      245.510
      251.625      268.392      286.042      296.582      301.398      270.777
      243.820      249.130      158.031      121.324      108.794      102.975
      110.045      154.389      212.326      299.782      272.804      226.680
      225.440      260.170      275.399      289.993      314.091      320.121
      180.233      147.698      133.728      119.623
      97.5420      96.3257      96.9965      101.148      106.985      121.738
      146.628      239.166      259.391      289.325      23.7643      132.467
      145.404      174.976      274.414      302.076      301.954      268.440
      239.893      280.824      25.1152      100.543      96.3490      101.340
      106.579      116.584      119.970      100.247      95.3379      130.825
      118.538      105.540      104.875      75.5759      8.54352      36.9209
      105.586      110.780      106.176      101.318
      97.0078      96.4069      99.9718      105.845      110.612      125.057
      160.638      210.431      231.415      311.220      11.1669      116.627
      126.908      126.577      115.771      85.1620      335.906      268.324
      112.271      73.2511      71.6785      85.6519      91.7088      97.1914
      99.7569      104.422      111.984      107.594      104.041      106.885
      106.253      108.671      111.083      105.989      94.0043      90.8105
      105.847      107.487      101.738      98.7050
      106.374      106.024      111.077      120.172      123.198      134.724
      157.700      184.384      188.245      6.37152      355.168      185.427
      168.485      142.366      121.017      104.467      84.3485      79.3509
      79.4327      77.3963      76.7468      80.5868      87.2063      87.8775
      81.0069      61.6003      123.612      136.939      120.281      112.105
      117.655      125.891      129.566      116.519      105.636      110.981
      123.421      124.001      106.706      102.247
      253.652      258.729      266.106      265.236      253.847      221.494
      191.495      184.112      197.898      325.194      298.634      251.243
      250.003      269.492      268.142      107.081      71.9384      69.4878
      64.5908      63.3719      68.6455      84.4475      95.1586      341.426
      309.735      303.155      281.495      256.473      251.164      130.407
      140.402      164.765      204.369      242.359      259.602      213.794
      223.518      255.759      272.673      263.846
      210.492      234.667      257.269      265.407      274.810      266.627
      228.383      214.519      218.821      303.786      308.910      269.382
      54.0770      41.4112      34.2256      52.8275      74.1190      82.1353
      77.2809      70.8582      73.2106      94.0663      114.874      142.268
      252.160      278.944      286.042      287.932      289.274      280.256
      276.741      178.688      180.513      218.311      359.524      111.203
      144.505      132.449      28.6749      218.369
      97.5399      97.9894      98.7171      97.8896      93.1830      96.0048
      120.698      124.587      101.126      69.5025      63.8538      71.4621
      76.2640      80.2443      83.0974      87.7592      91.0033      89.2714
      82.6458      77.0727      78.4001      90.6580      111.016      131.075
      137.821      117.747      70.3104      35.1101      45.7818      74.9890
      84.9927      91.4557      102.686      89.3176      71.4086      87.1279
      107.240      100.612      91.9489      93.4260
      96.3425      98.3517      99.7415      100.519      101.866      103.872
      106.254      100.799      84.8125      68.6164      61.5863      61.7491
      71.1808      84.8417      95.2550      99.8054      99.3938      92.4527
      82.4370      79.6158      81.8441      89.2339      101.135      115.792
      119.722      108.575      94.0234      82.5628      76.0095      77.6837
      80.9142      82.9385      78.9324      78.0963      81.6316      87.7811
      95.0681      97.9428      96.6347      95.3835
      99.8129      105.582      108.085      109.899      116.072      121.456
      121.211      107.247      77.3885      48.2750      32.3204      28.6736
      32.8911      62.6418      121.965      118.809      103.461      90.1477
      69.2007      69.0911      77.2470      89.7734      106.176      112.909
      118.590      120.922      108.612      84.7991      61.7240      55.9129
      61.4498      67.8872      71.0782      76.1277      83.9607      89.0045
      91.5547      95.0121      96.8902      97.3314
      236.137      218.140      207.342      196.513      178.379      175.323
      181.045      198.301      255.659      293.180      303.872      298.400
      287.801      278.245      267.501      268.957      274.775      287.159
      312.196      317.069      296.993      263.065      235.668      260.827
      244.865      166.240      156.530      134.942      9.72839      4.19141
      9.51123      16.6031      23.9303      39.2400      179.523      228.360
      249.692      253.882      254.379      254.765
      259.341      257.815      259.321      266.618      263.273      227.675
      211.148      214.081      231.893      257.644      275.212      276.797
      274.371      272.965      274.390      278.195      278.982      282.865
      288.356      289.064      280.462      271.205      262.789      287.379
      302.669      260.931      224.558      228.673      288.596      321.260
      322.694      313.296      295.093      274.735      257.351      252.337
      255.524      256.611      258.995      263.834
      252.356      258.579      267.905      279.589      279.114      252.943
      232.070      222.629      221.648      229.784      243.097      250.607
      256.015      260.949      268.854      278.253      283.456      288.667
      293.196      293.774      291.682      289.982      294.541      311.840
      311.351      285.189      259.341      252.540      267.042      288.125
      292.080      288.216      281.000      274.003      266.323      263.457
      260.274      253.602      252.108      253.971
      245.600      252.509      264.129      275.352      272.606      257.470
      242.645      231.703      224.382      216.400      215.782      214.344
      209.090      206.491      215.737      260.454      305.515      319.894
      324.526      324.282      323.056      321.901      322.339      319.927
      306.379      286.004      270.371      264.211      267.570      275.282
      278.646      279.307      278.005      274.715      268.684      263.934
      257.432      250.171      247.900      246.815
 
Time Mean Horizontal Wind Magnitude (m/s), p = 0.5 mb
utav (175.5W to 175.5E, dlong = 9 deg; 86.25N to 86.25S, dlat = 7.5 deg)
      17.5581      17.5581      17.5581      17.5581      17.5581      17.5581
      17.5581      17.5581      17.5581      17.5581      17.5581      17.5581
      17.5581      17.5581      17.5581      17.5581      17.5581      17.5581
      17.5581      17.5581      17.5581      17.5581      17.5581      17.5581
      17.5581      17.5581      17.5581      17.5581      17.5581      17.5581
      17.5581      17.5581      17.5581      17.5581      17.5581      17.5581
      17.5581      17.5581      17.5581      17.5581
      27.9547      29.3809      30.2818      31.0924      31.9939      32.5795
      32.1938      31.1632      30.4361      29.6512      28.2456      26.4306
      24.1433      22.1617      21.8194      21.9956      22.1231      23.4938
      26.3572      30.0789      33.8083      37.1219      39.8180      42.0881
      43.7416      44.8171      45.2665      44.3576      42.7283      39.9768
      36.1482      33.2961      31.1462      29.0047      27.2797      26.3008
      25.3966      24.8108      25.3671      26.4463
      58.6861      61.4923      64.1403      66.2047      67.3219      68.4174
      68.2345      67.1461      65.5227      63.0446      59.6296      54.5640
      48.9573      44.0456      40.2318      38.4137      39.4386      43.0573
      48.4693      55.5502      63.2380      70.4015      76.6667      81.3079
      84.0296      85.0266      84.4183      81.8843      77.7751      72.5343
      66.1180      59.9221      54.4416      49.7755      47.2594      46.1890
      46.0313      47.5581      50.4918      54.5830
      99.1083      101.446      104.020      106.047      106.665      107.547
      107.746      106.756      104.949      101.626      96.5838      90.0981
      82.7440      75.2229      69.2505      67.2503      69.9655      76.4993
      85.0722      94.6413      104.270      112.458      118.842      123.128
      125.542      126.080      124.938      122.769      118.886      113.588
      106.854      99.4662      93.2660      88.2333      85.1264      84.2815
      85.4530      88.0742      91.3710      95.4561
      121.224      121.896      122.188      123.000      123.916      124.756
      125.360      125.226      124.277      122.275      119.029      114.628
      108.971      102.643      98.5805      98.8430      102.517      109.019
      116.429      123.038      128.528      131.595      133.015      133.624
      132.808      131.585      130.819      129.671      127.753      125.935
      123.476      119.898      116.590      114.015      112.580      112.826
      114.635      116.735      118.478      119.991
      106.886      106.746      106.443      106.625      107.333      108.142
      109.214      109.900      110.215      110.282      109.530      107.833
      105.274      102.954      102.560      104.518      107.746      110.947
      113.576      114.623      114.116      112.194      109.656      107.327
      104.881      103.076      101.814      100.759      100.574      100.839
      101.409      101.525      100.817      100.812      101.605      103.032
      105.295      106.797      107.270      107.222
      79.8211      79.7240      80.2245      80.7079      81.1245      82.1471
      83.8033      85.1949      86.2528      87.2668      87.5861      87.1214
      86.6507      86.8756      87.7298      88.8298      89.7558      89.8362
      88.7813      86.2899      82.7193      78.9710      75.6744      72.6538
      70.5134      69.7232      68.9676      68.5359      69.0205      69.2364
      69.9213      70.7122      70.8196      71.6746      73.2206      75.1807
      77.4600      78.8697      79.9094      80.3558
      53.7826      53.6752      53.8205      54.1571      54.3404      54.8667
      55.9957      57.4719      59.4665      61.2646      61.7949      62.1467
      63.2559      64.0797      64.1065      63.6719      63.1268      61.4271
      58.1947      54.1896      49.6859      45.5329      42.5179      40.1102
      38.1563      37.1568      37.2481      38.3711      39.6088      40.1658
      41.1280      42.3135      42.9604      43.9920      45.6216      47.7868
      49.8006      51.4858      53.2755      54.0168
      29.6946      29.5527      29.7876      29.7275      30.4031      31.2843
      31.6385      32.6114      34.5158      36.1854      38.1251      40.1846
      41.8258      42.1751      40.3920      38.7588      36.0657      32.9000
      29.7179      25.9417      23.1547      20.8044      18.5265      15.8398
      13.2182      12.1434      12.9713      14.4963      15.9664      16.9161
      17.7952      19.5504      21.3405      23.0271      25.1513      27.2425
      28.9046      29.9200      30.5082      30.5022
      7.94518      7.94107      8.00367      8.91540      10.0987      11.2334
      12.5760      14.0228      16.5701      18.8438      22.1059      24.3537
      23.8206      22.1325      19.8011      17.7482      14.2660      13.6056
      12.8401      12.1265      13.0929      13.3551      13.5141      12.8262
      10.9512      7.74619      4.05823     0.796301      2.25561      3.07619
      2.94544      4.11444      6.10975      6.87121      7.10408      7.64915
      8.51863      8.56808      8.79831      8.64796
      10.6232      10.9487      11.1751      10.5107      10.4948      10.0937
      8.12478      4.67118      2.73814      5.66197      7.20740      7.52187
      6.35690      4.61220      4.09557      5.64453      7.22018      11.2725
      15.5805      17.4328      18.9882      20.8048      22.3114      22.3618
      21.6047      19.5473      15.6418      11.9635      10.2488      10.1620
      10.3721      9.98488      8.95669      8.53806      9.37358      9.67658
      10.1729      10.4891      10.2541      10.5832
      20.7587      21.1303      20.9810      21.0561      21.7357      20.8290
      17.9041      12.4698      7.18119      5.40949      6.03008      8.45062
      10.0843      9.66433      9.53994      11.9585      15.5371      20.1247
      24.3399      23.5824      22.4483      23.7086      25.8574      27.4016
      27.3911      26.0229      22.6946      20.4211      20.5935      21.1439
      22.1698      22.4128      21.6965      20.3269      18.9161      18.6262
      19.1499      19.4263      19.5957      20.2400
      28.8937      29.3665      28.3062      27.4216      28.1024      27.7722
      24.0218      17.2769      13.8735      14.4155      14.8347      16.1207
      17.7735      17.4532      17.3229      19.6882      23.7776      28.2588
      30.4722      29.3373      28.7926      30.7625      33.5173      34.4664
      33.7135      31.8386      28.8701      27.7968      28.7768      30.1334
      31.7201      32.2499      31.7991      30.5820      29.5137      29.9443
      30.3285      30.1703      29.6351      28.7643
      41.8273      42.3509      41.4869      41.0097      41.7958      41.2937
      36.9795      31.9407      31.2272      31.6922      31.7861      33.2606
      33.4907      32.4881      32.3138      34.2797      37.6468      39.8869
      40.3247      40.4027      40.6362      42.4714      44.3815      43.4208
      41.6660      39.0671      36.4431      35.9974      37.6744      40.2812
      42.0464      42.4710      41.7663      40.6897      40.7333      41.6977
      42.3866      42.8230      42.3195      41.3740
      44.6122      44.5225      43.8209      43.7501      44.0567      43.1304
      41.2536      40.2422      40.3912      40.5396      40.6928      42.1035
      42.2366      40.8084      40.1108      41.3347      43.8430      45.2781
      45.3412      44.6701      44.3062      45.5166      46.0579      43.4480
      40.5100      38.7982      37.4359      37.1697      38.7567      40.9310
      42.6093      42.7596      41.2768      40.6335      41.4456      42.5951
      43.5101      43.8888      43.8612      44.0198
      38.3072      37.7889      36.8677      36.7515      37.0590      36.6689
      36.2841      36.2702      35.8217      35.3950      35.5718      36.1226
      36.3990      36.1093      35.6552      36.4354      38.0853      38.8312
      38.8161      38.5913      38.9567      40.2280      40.2549      37.0095
      33.4932      32.1666      31.2674      31.0678      32.3395      33.8757
      35.2829      35.5790      34.8123      35.1462      36.5043      37.6670
      38.1626      38.2318      38.1787      38.1962
      32.5445      32.2159      31.6441      31.7850      32.3990      32.4256
      32.0752      31.9492      31.8708      31.7539      32.0752      32.2162
      32.0567      31.9566      31.6740      32.2760      33.5075      34.0395
      34.0611      34.1930      34.7863      35.5480      35.1498      32.8641
      30.5951      29.3941      28.8113      28.9365      29.6883      30.9144
      31.7544      31.6136      31.1480      31.2531      32.0205      32.6364
      32.6981      32.4767      32.2171      32.3279
      24.3644      24.3469      24.1901      24.2444      24.5011      24.5775
      24.6442      25.1320      25.5747      25.7538      25.9162      26.0830
      26.1896      26.2671      26.3315      26.7237      27.3404      27.6295
      27.7591      27.9707      28.1731      28.1693      27.6156      26.5294
      25.6707      25.1960      25.0529      25.2920      25.6828      26.1502
      26.2911      26.2203      25.8487      25.3493      25.2670      25.1493
      24.8467      24.4511      24.0406      24.0599
      15.7807      15.8391      15.8723      16.0246      16.1877      16.5073
      17.1697      18.0673      18.9633      19.7075      20.1193      20.2621
      20.2592      19.9285      19.5611      19.6008      19.8697      20.2155
      20.4710      20.5191      20.4934      20.2406      19.6861      19.1490
      18.8338      18.6948      18.5594      18.6140      19.0173      19.4989
      19.8064      19.5709      18.9982      18.4138      17.7915      17.2551
      16.7791      16.2388      15.7644      15.6384
      4.31589      4.01304      3.74275      3.54745      3.68497      4.70405
      5.85217      6.68459      7.32430      7.96690      8.72237      9.35848
      9.85427      10.2369      10.4293      10.8261      11.5283      12.1371
      12.5005      12.9354      13.3654      13.6900      14.1108      14.2194
      13.6753      13.1767      12.8912      12.5300      12.4085      12.6378
      12.6087      12.1195      11.5287      10.9864      10.3763      9.73513
      8.84268      7.60657      6.18574      4.95432
      7.77156      8.70596      9.18301      9.42013      9.40128      9.75468
      10.1765      10.0412      9.51344      8.62062      7.17424      5.40644
      3.66073      2.01951     0.876177     0.988239      1.64633      2.01631
      2.21651      2.73055      3.32998      3.68101      3.63802      3.37412
      3.51668      3.37670      3.24157      2.66427      1.67982      1.50018
     0.573091     0.829832      1.22690      1.88233      2.72842      4.04008
      5.47589      6.20283      6.57848      6.85944
      17.8704      18.1645      18.0728      17.7588      17.6331      18.0440
      18.7243      19.2770      19.4487      19.3384      19.0330      18.1988
      16.8796      15.5138      14.3419      13.4612      13.0233      12.8690
      12.6618      12.3828      11.9417      11.7386      12.0154      12.0791
      11.6448      11.2823      10.8838      10.3362      10.2195      11.1181
      12.2696      13.1161      13.9373      14.8850      15.9320      16.9713
      17.6119      17.7025      17.5388      17.4420
      20.3303      19.2372      18.5562      18.3292      18.4176      18.7074
      19.1553      19.8598      20.7314      21.6987      22.6671      23.3305
      23.5849      23.7282      23.7169      23.5626      23.4435      23.5968
      23.9397      24.2371      24.3396      24.2740      24.0204      23.6360
      23.4678      23.0146      22.1047      21.4489      21.3005      21.7446
      22.5989      23.5871      24.5135      25.1930      25.6245      25.5224
      24.8208      23.8967      22.7561      21.5328
      12.4206      11.0326      9.95613      9.56724      9.54497      9.83437
      10.8438      12.1732      13.2233      14.2784      15.3872      16.4319
      17.2915      18.0836      18.7994      19.5916      20.2194      20.6432
      21.2077      21.7522      22.2719      22.7251      22.9588      23.1982
      23.3244      22.9806      22.4105      22.1096      21.8854      21.6971
      21.6390      21.5453      21.3154      20.9227      20.6451      20.0369
      18.8777      17.3995      15.6909      14.0783
 
Time Mean Horizontal Wind Direction (deg from N, clockwise), p = 0.5 mb
utav (175.5W to 175.5E, dlong = 9 deg; 86.25N to 86.25S, dlat = 7.5 deg)
      270.207      270.207      270.207      270.207      270.207      270.207
      270.207      270.207      270.207      270.207      270.207      270.207
      270.207      270.207      270.207      270.207      270.207      270.207
      270.207      270.207      270.207      270.207      270.207      270.207
      270.207      270.207      270.207      270.207      270.207      270.207
      270.207      270.207      270.207      270.207      270.207      270.207
      270.207      270.207      270.207      270.207
      267.449      267.053      267.679      268.030      269.103      271.647
      274.185      275.937      277.126      278.662      279.266      279.315
      278.240      272.813      266.385      262.373      256.591      250.137
      246.115      245.470      247.439      250.345      253.935      257.738
      261.880      266.113      270.708      275.599      279.978      284.347
      287.107      287.969      288.654      287.802      285.211      283.190
      280.869      276.424      272.838      269.710
      262.979      263.829      264.777      266.511      268.183      270.369
      273.016      275.364      277.912      280.273      282.708      284.521
      284.073      281.443      276.577      269.465      261.486      254.948
      250.731      249.111      249.973      252.354      255.959      260.348
      264.893      269.406      273.776      278.007      281.638      284.619
      286.740      287.343      286.738      284.334      280.359      276.401
      272.009      267.736      264.544      262.729
      264.287      264.938      265.795      267.425      269.025      270.660
      272.878      275.239      277.793      280.465      282.700      284.013
      283.997      282.037      277.143      269.828      262.364      256.708
      253.491      252.278      253.031      255.186      258.341      262.102
      266.025      270.131      273.894      277.388      280.618      283.082
      284.672      284.678      283.127      280.453      276.763      272.756
      269.079      266.458      264.766      263.959
      265.440      266.075      266.911      267.928      269.454      271.369
      273.620      275.998      278.284      280.311      281.785      282.410
      281.744      278.997      273.736      267.410      261.497      256.873
      254.272      253.335      254.131      256.225      258.952      262.367
      266.034      269.514      273.000      276.412      279.227      281.308
      282.689      282.752      281.274      278.678      275.349      271.812
      268.807      266.861      265.802      265.373
      265.882      266.273      267.243      268.524      270.420      272.603
      274.931      277.214      278.993      280.255      281.047      280.780
      278.888      275.076      269.824      264.294      259.350      255.556
      253.307      252.805      253.737      255.829      258.489      261.688
      265.182      268.709      272.328      275.353      277.839      279.845
      280.954      281.297      280.283      277.758      274.793      271.639
      269.045      267.438      266.413      265.996
      266.129      266.313      267.465      269.512      271.788      273.836
      275.802      277.623      278.815      279.504      279.582      278.258
      275.229      270.976      266.311      261.552      257.176      253.880
      252.235      252.234      253.297      255.163      257.603      260.575
      263.608      267.252      271.294      274.345      277.041      279.042
      279.693      279.920      279.158      276.863      274.210      271.554
      269.493      267.886      266.496      266.113
      265.530      266.446      267.890      270.112      272.634      274.853
      276.703      277.867      278.384      278.796      278.109      275.310
      271.731      267.835      263.779      259.128      254.325      250.865
      249.558      249.643      250.397      251.015      252.083      254.773
      258.657      263.610      269.266      274.828      279.266      281.088
      281.010      280.698      279.281      276.673      273.592      270.895
      268.818      266.830      265.608      265.415
      263.712      265.221      268.400      271.285      273.604      276.487
      279.925      279.939      279.850      279.347      275.493      271.379
      267.873      265.328      261.497      255.311      248.823      241.837
      238.402      236.402      234.128      231.250      228.223      228.330
      235.176      249.214      263.234      277.509      286.102      287.925
      285.691      283.377      280.263      275.527      271.181      268.006
      265.488      264.299      263.700      263.482
      252.607      250.326      261.551      270.662      272.384      282.192
      291.136      288.019      287.188      281.307      269.246      265.135
      261.165      260.933      256.574      245.181      234.066      209.719
      194.609      181.556      171.035      161.286      151.389      142.760
      136.867      133.807      133.145      54.9033      327.308      321.337
      308.747      286.797      282.145      270.541      259.919      254.146
      247.780      251.317      249.827      249.489
      103.902      102.861      98.3011      96.7429      94.4615      82.2709
      70.7154      57.9819      338.972      287.598      256.815      239.807
      226.777      214.748      198.772      164.012      144.306      141.590
      134.189      128.727      126.938      121.997      116.570      114.173
      113.292      110.984      105.825      94.4773      91.5585      91.1312
      91.6146      92.7478      85.0141      90.5259      99.8107      105.042
      110.258      107.348      105.827      105.768
      93.6767      92.9659      93.1658      94.0712      92.6210      89.9591
      90.6275      93.3121      82.0744      77.9198      98.8676      114.484
      116.089      111.239      113.728      113.060      114.572      116.800
      117.124      115.574      114.470      110.762      107.695      107.895
      106.427      104.421      102.332      96.8802      95.4041      93.8188
      91.0554      88.3021      87.0101      92.1903      95.7793      98.0203
      99.1169      99.1713      98.4692      96.1633
      91.5597      91.9207      93.0161      92.3243      91.8980      94.9637
      97.2632      94.6905      83.9397      86.7991      94.8324      101.046
      103.000      98.1939      99.9557      101.426      102.948      104.384
      105.875      105.480      102.316      99.1509      98.3974      98.7528
      96.9467      95.5561      95.3148      93.1805      91.9010      91.2713
      90.1707      88.8114      90.1459      93.8205      94.8036      95.6858
      95.7850      95.7215      96.0319      94.0625
      91.9112      91.6211      91.6353      91.3111      91.7196      93.1820
      92.6163      89.0222      87.6989      90.5066      93.7240      93.8374
      94.4874      93.8693      94.1763      95.2489      94.1723      94.3698
      95.1953      95.2067      94.0254      93.3682      93.3653      93.3400
      93.5953      92.4303      90.4396      88.8397      88.4159      89.8166
      90.4685      90.7886      91.5008      92.1902      92.5482      93.3848
      93.6213      93.5896      93.3069      92.5514
      90.8710      90.6042      90.3733      91.1034      92.3065      92.6294
      91.5231      90.1621      90.1592      90.6442      91.1197      91.2156
      92.8587      93.3416      93.5697      93.6694      92.3859      92.6673
      91.8717      91.0183      91.3471      92.2668      92.8223      93.1823
      92.9034      90.7320      89.2900      88.9144      89.2066      89.9733
      90.2299      90.8359      90.8737      90.4880      91.0939      91.8034
      91.9861      91.9651      91.6941      91.2092
      90.7404      90.8206      90.8107      91.4328      92.6961      93.9911
      93.3257      91.7645      91.1054      90.0662      89.2756      90.6905
      92.3283      92.4594      92.6864      92.2216      91.7764      91.6560
      90.9331      90.4698      91.1368      92.4246      92.5191      91.7617
      89.8057      88.0510      88.4554      89.1059      89.6940      89.4317
      89.3994      89.9317      89.7467      89.7903      90.8765      91.3213
      91.3514      91.4807      91.1538      90.8537
      90.5506      91.1849      91.3759      91.4359      91.6213      91.3965
      90.6752      90.1926      89.6022      89.0990      89.1924      90.1767
      90.5890      91.0709      91.5781      91.1047      91.1292      90.9361
      90.4543      90.6154      91.5236      92.1916      92.0656      91.1894
      89.8620      89.1745      89.0067      88.6989      88.8195      88.9324
      88.9480      88.8298      88.9705      89.8555      90.7158      90.9439
      91.1933      91.6014      91.2054      90.4256
      90.3448      91.0299      91.2847      90.6241      89.8029      89.0328
      88.5239      88.3877      88.4206      88.5896      89.1016      89.9325
      90.3989      91.0179      91.3679      91.0707      90.5750      90.3574
      90.1743      90.6232      91.2824      91.3021      91.5907      91.2620
      90.4125      90.0453      89.5072      89.1228      88.8965      89.2599
      89.2682      88.9618      89.1753      89.7144      90.5101      91.1722
      91.6823      91.9433      91.6162      90.4899
      90.5369      90.9395      90.3801      89.2031      88.0186      86.5294
      85.3019      85.2787      85.9543      87.2021      88.8183      90.1480
      91.6285      92.4668      92.0127      91.2713      90.4792      89.5989
      89.9909      90.9967      91.3174      91.0755      91.1667      90.8336
      90.5210      90.9940      90.7017      90.0252      88.7845      88.0021
      88.4362      89.4622      90.2504      90.5347      91.6610      92.9029
      93.5977      94.0631      93.4410      91.5090
      94.1632      95.9527      92.0737      85.1216      75.8714      62.0954
      60.8666      64.7437      69.3138      75.5999      83.2494      89.0910
      93.9638      96.6524      93.9932      90.2610      88.2687      86.9590
      88.6381      90.8367      90.8266      90.0774      89.3744      91.2619
      93.5552      94.0971      94.7977      93.0711      88.4536      84.6133
      87.5318      92.7994      93.5154      94.7308      97.3091      101.252
      105.647      108.983      108.711      101.550
      256.932      260.203      263.899      269.001      276.975      287.677
      292.843      294.843      296.010      297.229      296.749      292.417
      286.120      279.416      300.135      3.47662      24.0251      36.3288
      52.9621      70.7064      80.3540      79.6831      81.0373      103.737
      121.028      126.274      133.009      129.965      94.4323      48.4383
      62.1132      144.177      142.964      161.726      179.460      192.844
      202.392      213.503      227.036      244.835
      255.848      259.845      263.828      268.538      274.101      278.914
      282.647      285.139      287.110      288.622      288.533      286.898
      284.901      283.051      281.717      281.626      282.912      283.995
      283.440      281.457      277.946      275.529      271.550      265.213
      260.861      256.509      254.738      257.092      264.775      269.811
      269.079      267.442      263.884      258.230      252.577      247.452
      243.724      243.351      245.487      250.672
      253.145      257.212      262.166      267.670      273.024      277.897
      281.996      285.223      287.691      288.809      288.664      287.797
      286.108      284.465      282.773      281.653      281.035      280.811
      280.014      278.369      276.565      274.564      272.120      269.949
      267.966      265.353      264.109      264.146      264.657      265.190
      264.917      263.796      261.639      258.739      255.144      251.426
      248.559      247.172      247.376      249.415
      242.319      246.833      254.226      263.752      274.019      283.938
      290.816      295.938      297.596      297.605      296.737      294.937
      292.468      290.231      288.898      288.204      286.902      285.296
      283.681      281.703      279.753      277.571      275.012      272.393
      269.377      266.634      265.022      263.866      262.477      261.380
      259.845      257.703      254.875      251.932      248.801      245.097
      241.385      237.841      236.148      237.641
 
